# energy grid [eV]     epsr_x  epsr_y  epsr_z
#
    0.000000000   15.627850645   15.627818583   15.627855183
    0.060120240   15.631621978   15.631589915   15.631626517
    0.120240481   15.642949522   15.642917455   15.642954062
    0.180360721   15.661874043   15.661841968   15.661878583
    0.240480962   15.688463936   15.688431851   15.688468478
    0.300601202   15.722815916   15.722783818   15.722820460
    0.360721443   15.765056001   15.765023887   15.765060548
    0.420841683   15.815340810   15.815308678   15.815345361
    0.480961924   15.873859210   15.873827056   15.873863763
    0.541082164   15.940834329   15.940802151   15.940838886
    0.601202405   16.016526008   16.016493802   16.016530570
    0.661322645   16.101233719   16.101201483   16.101238286
    0.721442886   16.195300041   16.195267772   16.195304613
    0.781563126   16.299114763   16.299082458   16.299119342
    0.841683367   16.413119733   16.413087389   16.413124318
    0.901803607   16.537814573   16.537782187   16.537819165
    0.961923848   16.673763432   16.673731000   16.673768031
    1.022044088   16.821602969   16.821570489   16.821607576
    1.082164329   16.982051825   16.982019294   16.982056441
    1.142284569   17.155921906   17.155889320   17.155926531
    1.202404810   17.344131862   17.344099218   17.344136497
    1.262525050   17.547723307   17.547690602   17.547727951
    1.322645291   17.767880410   17.767847641   17.767885066
    1.382765531   18.005953754   18.005920917   18.005958421
    1.442885772   18.263489562   18.263456655   18.263494241
    1.503006012   18.542265830   18.542232848   18.542270521
    1.563126253   18.844337351   18.844304292   18.844342056
    1.623246493   19.172092415   19.172059275   19.172097134
    1.683366733   19.528324936   19.528291711   19.528329670
    1.743486974   19.916327343   19.916294030   19.916332093
    1.803607214   20.340011740   20.339978335   20.340016506
    1.863727455   20.804070254   20.804036752   20.804075037
    1.923847695   21.314190587   21.314156985   21.314195388
    1.983967936   21.877350828   21.877317122   21.877355648
    2.044088176   22.502230159   22.502196343   22.502234999
    2.104208417   23.199792144   23.199758215   23.199797005
    2.164328657   23.984128558   23.984094509   23.984133441
    2.224448898   24.873696644   24.873662470   24.873701550
    2.284569138   25.893126257   25.893091950   25.893131187
    2.344689379   27.075694117   27.075659671   27.075699073
    2.404809619   28.465644820   28.465610225   28.465649804
    2.464929860   30.113766526   30.113731787   30.113771545
    2.525050100   32.031466739   32.031431925   32.031471825
    2.585170341   34.048334442   34.048299714   34.048339661
    2.645290581   35.860845145   35.860810243   35.860850425
    2.705410822   36.785967725   36.785932602   36.785972984
    2.765531062   35.858565863   35.858530786   35.858571104
    2.825651303   33.931703793   33.931668525   33.931709120
    2.885771543   32.311052993   32.311017532   32.311058348
    2.945891784   31.211985732   31.211950196   31.211990929
    3.006012024   30.278850631   30.278815003   30.278855711
    3.066132265   28.837873954   28.837838215   28.837879021
    3.126252505   27.866829968   27.866794004   27.866835066
    3.186372745   27.718689762   27.718653377   27.718694858
    3.246492986   27.570689497   27.570652692   27.570694515
    3.306613226   27.374341796   27.374304740   27.374346761
    3.366733467   27.163364850   27.163327447   27.163369818
    3.426853707   27.357912213   27.357874344   27.357917301
    3.486973948   27.453213829   27.453175608   27.453218976
    3.547094188   26.648132881   26.648094542   26.648138135
    3.607214429   23.557935924   23.557897472   23.557941352
    3.667334669   17.938235801   17.938197137   17.938241325
    3.727454910   10.073808741   10.073770082   10.073814391
    3.787575150    0.659922840    0.659884087    0.659928545
    3.847695391   -7.112848941   -7.112888189   -7.112843526
    3.907815631  -10.837633337  -10.837673060  -10.837628198
    3.967935872  -12.895699316  -12.895739362  -12.895694255
    4.028056112  -12.807898565  -12.807939043  -12.807893511
    4.088176353  -11.649456991  -11.649498127  -11.649451909
    4.148296593  -11.683538730  -11.683580237  -11.683533532
    4.208416834  -12.219033561  -12.219075187  -12.219028019
    4.268537074  -12.033174147  -12.033215837  -12.033168199
    4.328657315  -10.493791516  -10.493833486  -10.493785489
    4.388777555   -8.915851093   -8.915893526   -8.915845021
    4.448897796   -8.688902987   -8.688945684   -8.688896467
    4.509018036  -10.244704829  -10.244747681  -10.244698088
    4.569138277  -12.289165150  -12.289208265  -12.289158592
    4.629258517  -13.238576912  -13.238620470  -13.238570516
    4.689378758  -12.965051289  -12.965095347  -12.965045021
    4.749498998  -12.271257479  -12.271302201  -12.271251319
    4.809619238  -11.526702278  -11.526747744  -11.526696238
    4.869739479  -11.327748541  -11.327794336  -11.327742393
    4.929859719  -11.748735762  -11.748781737  -11.748729405
    4.989979960  -12.238454060  -12.238500323  -12.238447466
    5.050100200  -12.581031756  -12.581078160  -12.581024776
    5.110220441  -12.288519607  -12.288566278  -12.288512338
    5.170340681  -11.438566408  -11.438613680  -11.438559149
    5.230460922  -10.660573450  -10.660621705  -10.660567058
    5.290581162  -10.270769631  -10.270818911  -10.270764133
    5.350701403  -10.549083461  -10.549133724  -10.549078070
    5.410821643  -11.173821957  -11.173873192  -11.173816268
    5.470941884  -11.414701890  -11.414753825  -11.414695776
    5.531062124  -11.051444156  -11.051496617  -11.051437456
    5.591182365  -10.442995873  -10.443048720  -10.442988516
    5.651302605   -9.917399002   -9.917452618   -9.917390884
    5.711422846   -9.600715429   -9.600770144   -9.600706613
    5.771543086   -9.377711180   -9.377766892   -9.377701997
    5.831663327   -9.294738237   -9.294795077   -9.294729396
    5.891783567   -9.564877967   -9.564935903   -9.564869714
    5.951903808   -9.657870765   -9.657930002   -9.657862704
    6.012024048   -9.374437255   -9.374497919   -9.374429109
    6.072144289   -8.990020840   -8.990082522   -8.990012533
    6.132264529   -8.727985601   -8.728048055   -8.727976876
    6.192384770   -8.495363525   -8.495427072   -8.495354511
    6.252505010   -8.224223812   -8.224288706   -8.224214836
    6.312625251   -8.065477479   -8.065543892   -8.065468621
    6.372745491   -8.091696337   -8.091764389   -8.091687433
    6.432865731   -8.016419524   -8.016489371   -8.016410674
    6.492985972   -7.762490963   -7.762562549   -7.762481902
    6.553106212   -7.501363823   -7.501437163   -7.501354552
    6.613226453   -7.415816190   -7.415890962   -7.415806663
    6.673346693   -7.314483858   -7.314559941   -7.314474041
    6.733466934   -7.071452516   -7.071530455   -7.071442506
    6.793587174   -6.814248878   -6.814328882   -6.814238549
    6.853707415   -6.703399103   -6.703481262   -6.703388304
    6.913827655   -6.647049309   -6.647133888   -6.647037984
    6.973947896   -6.542922908   -6.543010255   -6.542911245
    7.034068136   -6.421431575   -6.421522083   -6.421419499
    7.094188377   -6.302259991   -6.302353737   -6.302247448
    7.154308617   -6.192230153   -6.192326984   -6.192217161
    7.214428858   -6.058962913   -6.059062738   -6.058949329
    7.274549098   -5.892888480   -5.892991521   -5.892874056
    7.334669339   -5.754288159   -5.754394778   -5.754272759
    7.394789579   -5.691239630   -5.691350218   -5.691222917
    7.454909820   -5.627046876   -5.627162338   -5.627028819
    7.515030060   -5.514979204   -5.515100433   -5.514960242
    7.575150301   -5.402413029   -5.402540707   -5.402393514
    7.635270541   -5.283296785   -5.283431559   -5.283276482
    7.695390782   -5.157677940   -5.157820602   -5.157656500
    7.755511022   -5.051704829   -5.051856419   -5.051682173
    7.815631263   -4.970108425   -4.970270324   -4.970084528
    7.875751503   -4.936326518   -4.936500019   -4.936300891
    7.935871743   -4.897489752   -4.897676435   -4.897461814
    7.995991984   -4.797933818   -4.798135734   -4.797903051
    8.056112224   -4.625330063   -4.625550260   -4.625296124
    8.116232465   -4.441412699   -4.441655012   -4.441375584
    8.176352705   -4.326759379   -4.327028548   -4.326719634
    8.236472946   -4.266818096   -4.267121416   -4.266774411
    8.296593186   -4.250051700   -4.250399723   -4.250002533
    8.356713427   -4.252112368   -4.252518105   -4.252057167
    8.416833667   -4.208356299   -4.208836805   -4.208292620
    8.476953908   -4.107360677   -4.107930456   -4.107285114
    8.537074148   -3.985292867   -3.985912473   -3.985210394
    8.597194389   -3.835500730   -3.835875544   -3.835452233
    8.657314629   -3.708136048   -3.707844358   -3.708181399
    8.717434870   -3.653312967   -3.652729176   -3.653400423
    8.777555110   -3.645112243   -3.644566856   -3.645195170
    8.837675351   -3.638831887   -3.638375939   -3.638902467
    8.897795591   -3.599561585   -3.599182406   -3.599621507
    8.957915832   -3.511056176   -3.510736413   -3.511107534
    9.018036072   -3.405242706   -3.404968362   -3.405287130
    9.078156313   -3.297001457   -3.296761741   -3.297039844
    9.138276553   -3.198235840   -3.198022483   -3.198267494
    9.198396794   -3.121761589   -3.121570067   -3.121788415
    9.258517034   -3.075665765   -3.075493385   -3.075690382
    9.318637275   -3.055241166   -3.055085273   -3.055264281
    9.378757515   -3.031683026   -3.031540988   -3.031704585
    9.438877756   -2.984910606   -2.984779149   -2.984929301
    9.498997996   -2.906303275   -2.906179887   -2.906318077
    9.559118236   -2.820746621   -2.820631562   -2.820759517
    9.619238477   -2.747863158   -2.747756201   -2.747875186
    9.679358717   -2.682891642   -2.682792062   -2.682903106
    9.739478958   -2.629146931   -2.629053952   -2.629157806
    9.799599198   -2.588852886   -2.588765690   -2.588863172
    9.859719439   -2.559414545   -2.559332503   -2.559424389
    9.919839679   -2.530789331   -2.530712005   -2.530798802
    9.979959920   -2.479568599   -2.479495694   -2.479577794
   10.040080160   -2.417836664   -2.417767830   -2.417845572
   10.100200401   -2.358852061   -2.358786882   -2.358860403
   10.160320641   -2.303612358   -2.303550553   -2.303620088
   10.220440882   -2.260119498   -2.260060868   -2.260126715
   10.280561122   -2.215753349   -2.215697711   -2.215760209
   10.340681363   -2.177241719   -2.177188868   -2.177248400
   10.400801603   -2.147610528   -2.147560339   -2.147617029
   10.460921844   -2.127307015   -2.127259533   -2.127313194
   10.521042084   -2.100648988   -2.100604122   -2.100654826
   10.581162325   -2.054706737   -2.054664231   -2.054712342
   10.641282565   -1.995442063   -1.995401713   -1.995447421
   10.701402806   -1.943180976   -1.943142679   -1.943186088
   10.761523046   -1.911083941   -1.911047751   -1.911089052
   10.821643287   -1.892004799   -1.891970748   -1.892010043
   10.881763527   -1.869199554   -1.869167543   -1.869204666
   10.941883768   -1.841702023   -1.841671866   -1.841706490
   11.002004008   -1.809574432   -1.809546000   -1.809578070
   11.062124248   -1.771926791   -1.771900070   -1.771929937
   11.122244489   -1.729602451   -1.729577368   -1.729605216
   11.182364729   -1.687485794   -1.687462490   -1.687488272
   11.242484970   -1.643072532   -1.643051154   -1.643074875
   11.302605210   -1.608190128   -1.608170652   -1.608192337
   11.362725451   -1.578287675   -1.578269847   -1.578289747
   11.422845691   -1.553707784   -1.553691556   -1.553709894
   11.482965932   -1.536070029   -1.536055745   -1.536072128
   11.543086172   -1.512570704   -1.512558607   -1.512572349
   11.603206413   -1.478946490   -1.478936484   -1.478947720
   11.663326653   -1.444881329   -1.444873457   -1.444882238
   11.723446894   -1.414140494   -1.414134916   -1.414141123
   11.783567134   -1.379473669   -1.379470574   -1.379474092
   11.843687375   -1.350255158   -1.350254786   -1.350255267
   11.903807615   -1.332126343   -1.332128857   -1.332125975
   11.963927856   -1.314795301   -1.314800935   -1.314794371
   12.024048096   -1.294410871   -1.294420306   -1.294409386
   12.084168337   -1.275178214   -1.275192633   -1.275176233
   12.144288577   -1.253090644   -1.253110751   -1.253087720
   12.204408818   -1.227187462   -1.227213579   -1.227183593
   12.264529058   -1.194645029   -1.194678174   -1.194640198
   12.324649299   -1.157277059   -1.157318998   -1.157271035
   12.384769539   -1.124242932   -1.124296136   -1.124235331
   12.444889780   -1.097127906   -1.097195783   -1.097118263
   12.505010020   -1.080840866   -1.080927263   -1.080828655
   12.565130261   -1.068026211   -1.068130855   -1.068011475
   12.625250501   -1.051227696   -1.051320871   -1.051214401
   12.685370741   -1.029590944   -1.029570989   -1.029593125
   12.745490982   -1.004222406   -1.004085615   -1.004240924
   12.805611222   -0.977953581   -0.977802934   -0.977974157
   12.865731463   -0.950181610   -0.950048862   -0.950199734
   12.925851703   -0.922384817   -0.922270646   -0.922400361
   12.985971944   -0.898951140   -0.898851748   -0.898964646
   13.046092184   -0.882574673   -0.882486666   -0.882586582
   13.106212425   -0.870873580   -0.870794485   -0.870884261
   13.166332665   -0.856881899   -0.856810040   -0.856891702
   13.226452906   -0.836478722   -0.836412789   -0.836487885
   13.286573146   -0.813814958   -0.813753712   -0.813823560
   13.346693387   -0.793242934   -0.793185468   -0.793250986
   13.406813627   -0.773827939   -0.773773792   -0.773835517
   13.466933868   -0.754168179   -0.754116974   -0.754175365
   13.527054108   -0.736608957   -0.736560336   -0.736615807
   13.587174349   -0.722267535   -0.722221214   -0.722274091
   13.647294589   -0.709503865   -0.709459606   -0.709510155
   13.707414830   -0.695281901   -0.695239483   -0.695287948
   13.767535070   -0.678973883   -0.678933163   -0.678979748
   13.827655311   -0.660675485   -0.660636329   -0.660681119
   13.887775551   -0.641917650   -0.641879830   -0.641922891
   13.947895792   -0.624816268   -0.624779610   -0.624821156
   14.008016032   -0.610011961   -0.609976431   -0.610016678
   14.068136273   -0.594592975   -0.594558509   -0.594597564
   14.128256513   -0.580975122   -0.580941621   -0.580979534
   14.188376754   -0.568630841   -0.568598284   -0.568635146
   14.248496994   -0.555175845   -0.555144225   -0.555180114
   14.308617234   -0.540787190   -0.540756451   -0.540791371
   14.368737475   -0.527297890   -0.527267915   -0.527301869
   14.428857715   -0.515612261   -0.515582905   -0.515616016
   14.488977956   -0.503297042   -0.503268316   -0.503300662
   14.549098196   -0.493798654   -0.493770576   -0.493802193
   14.609218437   -0.486202136   -0.486174687   -0.486205614
   14.669338677   -0.476433449   -0.476406585   -0.476436919
   14.729458918   -0.464082100   -0.464055809   -0.464085599
   14.789579158   -0.449780414   -0.449754707   -0.449783923
   14.849699399   -0.436316484   -0.436291283   -0.436319961
   14.909819639   -0.425904708   -0.425879935   -0.425908111
   14.969939880   -0.415863642   -0.415839308   -0.415866968
   15.030060120   -0.403422326   -0.403398457   -0.403425579
   15.090180361   -0.389648672   -0.389625266   -0.389651862
   15.150300601   -0.375950129   -0.375927158   -0.375953257
   15.210420842   -0.362351317   -0.362328760   -0.362354383
   15.270541082   -0.349910875   -0.349888717   -0.349913881
   15.330661323   -0.337817255   -0.337795486   -0.337820209
   15.390781563   -0.325079892   -0.325058493   -0.325082790
   15.450901804   -0.311582391   -0.311561344   -0.311585231
   15.511022044   -0.298142674   -0.298121970   -0.298145465
   15.571142285   -0.285457569   -0.285437197   -0.285460312
   15.631262525   -0.274517585   -0.274497536   -0.274520284
   15.691382766   -0.263900519   -0.263880787   -0.263903172
   15.751503006   -0.252693344   -0.252673924   -0.252695938
   15.811623246   -0.241554607   -0.241535488   -0.241557152
   15.871743487   -0.230651151   -0.230632327   -0.230653663
   15.931863727   -0.220407794   -0.220389257   -0.220410273
   15.991983968   -0.210267661   -0.210249404   -0.210270102
   16.052104208   -0.199822047   -0.199804062   -0.199824444
   16.112224449   -0.189002060   -0.188984329   -0.189004418
   16.172344689   -0.177926570   -0.177909092   -0.177928895
   16.232464930   -0.167040364   -0.167023132   -0.167042650
   16.292585170   -0.157154633   -0.157137631   -0.157156867
   16.352705411   -0.148204101   -0.148187317   -0.148206283
   16.412825651   -0.139107981   -0.139091423   -0.139110122
   16.472945892   -0.129510481   -0.129494167   -0.129512601
   16.533066132   -0.119395330   -0.119379251   -0.119397427
   16.593186373   -0.109393936   -0.109378065   -0.109395995
   16.653306613   -0.100025376   -0.100009701   -0.100027395
   16.713426854   -0.090698404   -0.090682928   -0.090700391
   16.773547094   -0.081391839   -0.081376549   -0.081393789
   16.833667335   -0.072383078   -0.072367973   -0.072384987
   16.893787575   -0.063441089   -0.063426181   -0.063442959
   16.953907816   -0.054546777   -0.054532111   -0.054548655
   17.014028056   -0.046101728   -0.046087350   -0.046103679
   17.074148297   -0.037687083   -0.037672927   -0.037689034
   17.134268537   -0.028912307   -0.028898333   -0.028914209
   17.194388778   -0.020230954   -0.020217158   -0.020232805
   17.254509018   -0.011851841   -0.011838217   -0.011853655
   17.314629259   -0.003695153   -0.003681731   -0.003696995
   17.374749499    0.004464932    0.004478110    0.004463007
   17.434869739    0.012663146    0.012676132    0.012661214
   17.494989980    0.020699226    0.020712035    0.020697348
   17.555110220    0.028641523    0.028654151    0.028639707
   17.615230461    0.036414065    0.036426522    0.036412313
   17.675350701    0.044113703    0.044125997    0.044112021
   17.735470942    0.051759120    0.051771241    0.051757504
   17.795591182    0.059412662    0.059424592    0.059411107
   17.855711423    0.067031925    0.067043648    0.067030420
   17.915831663    0.074578633    0.074590135    0.074577174
   17.975951904    0.082020853    0.082032095    0.082019443
   18.036072144    0.089406934    0.089417834    0.089405545
   18.096192385    0.096707367    0.096717856    0.096705972
   18.156312625    0.103894648    0.103904718    0.103893244
   18.216432866    0.110954368    0.110963961    0.110952963
   18.276553106    0.117893101    0.117902146    0.117891768
   18.336673347    0.124719327    0.124728075    0.124718052
   18.396793587    0.131437576    0.131447673    0.131436126
   18.456913828    0.138050917    0.138064224    0.138049026
   18.517034068    0.144568911    0.144583324    0.144566872
   18.577154309    0.150995087    0.151009143    0.150993104
   18.637274549    0.157331630    0.157345137    0.157329730
   18.697394790    0.163581525    0.163594554    0.163579696
   18.757515030    0.169747682    0.169760321    0.169745911
   18.817635271    0.175832748    0.175845066    0.175831025
   18.877755511    0.181839123    0.181851168    0.181837440
   18.937875752    0.187768994    0.187780805    0.187767347
   18.997995992    0.193624381    0.193635984    0.193622765
   19.058116232    0.199407156    0.199418572    0.199405567
   19.118236473    0.205119069    0.205130314    0.205117505
   19.178356713    0.210761764    0.210772851    0.210760224
   19.238476954    0.216336793    0.216347733    0.216335274
   19.298597194    0.221845626    0.221856427    0.221844127
   19.358717435    0.227289660    0.227300331    0.227288181
   19.418837675    0.232670231    0.232680776    0.232668769
   19.478957916    0.237988611    0.237999037    0.237987166
   19.539078156    0.243246023    0.243256334    0.243244595
   19.599198397    0.248443639    0.248453841    0.248442227
