# omega(eV)     n     kappa     alpha(1/m)
0.00000000     3.95320648     0.00000000     0.00000000
0.06012024     3.95368377     0.00159241     970.32685982
0.12024048     3.95511700     0.00318941     3886.91246142
0.18036072     3.95751031     0.00479566     8766.65229431
0.24048096     3.96087060     0.00641587     15637.95409882
0.30060120     3.96520764     0.00805490     24541.12744793
0.36072144     3.97053413     0.00971778     35528.94826779
0.42084168     3.97686583     0.01140974     48667.38576791
0.48096192     3.98422170     0.01313632     64036.55015632
0.54108216     3.99262410     0.01490338     81731.86553496
0.60120240     4.00209898     0.01671718     101865.50876032
0.66132265     4.01267615     0.01858447     124568.15942714
0.72144289     4.02438959     0.02051256     149991.06357103
0.78156313     4.03727782     0.02250945     178308.63908421
0.84168337     4.05138431     0.02458388     209721.41685035
0.90180361     4.06675800     0.02674558     244459.83230722
0.96192385     4.08345386     0.02900531     282788.52583860
1.02204409     4.10153363     0.03137516     325011.81119151
1.08216433     4.12106656     0.03386873     371480.16886995
1.14228457     4.14213048     0.03650143     422598.25341915
1.20240481     4.16481288     0.03929085     478834.74921914
1.26252505     4.18921229     0.04225719     540734.64159722
1.32264529     4.21544000     0.04542382     608934.53996732
1.38276553     4.24362199     0.04881795     684181.95721192
1.44288577     4.27390143     0.05247153     767360.09257921
1.50300601     4.30644167     0.05642239     859519.46882287
1.56312625     4.34142998     0.06071572     961919.51545102
1.62324649     4.37908220     0.06540605     1076083.41106968
1.68336673     4.41964864     0.07055989     1203871.56590438
1.74348697     4.46342170     0.07625934     1347582.19172585
1.80360721     4.51074563     0.08260714     1510090.76103371
1.86372746     4.56202946     0.08973382     1695048.26538378
1.92384770     4.61776433     0.09780814     1907169.15304683
1.98396794     4.67854694     0.10705269     2152661.66557697
2.04408818     4.74511220     0.11776799     2439890.89546262
2.10420842     4.81837930     0.13037102     2780438.73385583
2.16432866     4.89951808     0.14545971     3190872.61239633
2.22444890     4.99004596     0.16392624     3695850.84161384
2.28456914     5.09196902     0.18716846     4333916.04527106
2.34468938     5.20797431     0.21751355     5169102.73369802
2.40480962     5.34160877     0.25913180     6316041.07289776
2.46492986     5.49692724     0.32008196     7996672.09086523
2.52505010     5.67489305     0.41587773     10643370.70904679
2.58517034     5.86250617     0.56626317     14837167.70251222
2.64529058     6.03921186     0.78182132     20961599.49119066
2.70541082     6.16096095     1.08235026     29678679.61207218
2.76553106     6.15060208     1.40404774     39355364.54196039
2.82565130     6.05172123     1.64062064     46986193.40670026
2.88577154     5.96024553     1.79261925     52431650.26775400
2.94589178     5.90530010     1.91326780     57126297.49409376
3.00601202     5.87220480     2.05035334     62468768.94591273
3.06613226     5.79722911     2.18403335     67872473.36462162
3.12625251     5.73636007     2.24477330     71127913.15644622
3.18637274     5.74866968     2.30835954     74549297.85356753
3.24649299     5.77774227     2.41073160     79324411.06139047
3.30661323     5.81113788     2.52883222     84751411.68503682
3.36673347     5.85084224     2.65875926     90725898.50552776
3.42685371     5.93287430     2.80019575     97258480.90520862
3.48697395     6.04878096     3.02234153     106815866.32085362
3.54709419     6.15460032     3.35126591     120482823.03508854
3.60721443     6.16347263     3.79874584     138885121.37714756
3.66733467     6.02536578     4.28565141     159298216.20159304
3.72745491     5.73112424     4.77200035     180283670.09566063
3.78757515     5.24119553     5.17785851     198771887.92437437
3.84769539     4.62222440     5.33646124     208112213.32671353
3.90781563     4.11770459     5.27191957     208807631.25342685
3.96793587     3.70200358     5.15757128     207421326.98189738
4.02805611     3.37691639     4.92051569     200885993.89676943
4.08817635     3.25373280     4.71553243     195390697.48239854
4.14829659     3.14542122     4.64512922     195303993.94676736
4.20841683     2.96731167     4.58519183     195577902.61404648
4.26853707     2.77244107     4.44067738     192119657.99089667
4.32865732     2.69706809     4.21520815     184933571.51007050
4.38877755     2.77660420     4.07742494     181373180.53335485
4.44889780     2.87266762     4.11596092     185595395.41125840
4.50901804     2.83506082     4.27577908     195407287.36059654
4.56913828     2.63225923     4.38383006     203016594.15273657
4.62925852     2.39168351     4.35416345     204295917.18136469
4.68937876     2.22172594     4.23097271     201093976.09754142
4.74949900     2.13202229     4.10082789     197407145.46698180
4.80961924     2.10865223     3.99663979     194827038.93487576
4.86973948     2.10985362     3.97230966     196061513.25743324
4.92985972     2.05293195     3.99540718     199636125.59853816
4.98997996     1.94970212     4.00497261     202554491.38461077
5.05010020     1.81018539     3.98218734     203828640.70577800
5.11022044     1.67106224     3.88342397     201139778.38361692
5.17034068     1.61073592     3.74607127     196308326.67862982
5.23046092     1.61697827     3.64351563     193154185.54139391
5.29058116     1.65204171     3.60555489     193338799.42024162
5.35070140     1.65285588     3.64431488     197637856.75695598
5.41082164     1.56356260     3.69033402     202382250.13830560
5.47094188     1.42833729     3.66808732     203397350.69352904
5.53106212     1.32096653     3.57720729     200537764.15968320
5.59118236     1.27200692     3.47289687     196806332.84864533
5.65130260     1.26073955     3.39217900     194299126.87493530
5.71142285     1.25708282     3.34379843     193565489.41062018
5.77154309     1.24792180     3.30681652     193439680.67465478
5.83166333     1.24961423     3.29488846     194749650.19837120
5.89178357     1.20622779     3.31962046     198234273.47739515
5.95190381     1.11499303     3.30168098     199174867.45881611
6.01202405     1.04292551     3.23452444     197094575.67357725
6.07214429     1.01209935     3.16455111     194759083.77269232
6.13226453     0.99098884     3.11609730     193675825.90599787
6.19238477     0.96585867     3.07054794     192715808.76442927
6.25250501     0.95131229     3.02146281     191476211.99898914
6.31262525     0.95050999     2.99482318     191612889.55115885
6.37274549     0.92287662     2.99055468     193162068.60349450
6.43286573     0.87137949     2.96238790     193147876.39150041
6.49298597     0.83304383     2.90800169     191373872.09515390
6.55310621     0.82647145     2.86084607     190013835.03449467
6.61322645     0.81094502     2.84138518     190452654.87693286
6.67334669     0.77441759     2.81322387     190279283.33147293
6.73346693     0.74534456     2.76170485     188477503.02848038
6.79358717     0.74390057     2.71434341     186899212.11670980
6.85370741     0.74468225     2.69406283     187144386.94392329
6.91382766     0.72500883     2.67819184     187673847.55002150
6.97394790     0.70250133     2.65263195     187499114.20247623
7.03406814     0.68215658     2.62427043     187093493.38952240
7.09418838     0.66489657     2.59699336     186731282.94157282
7.15430862     0.64445898     2.57052241     186394284.50868312
7.21442886     0.62403863     2.53937313     185682938.29626548
7.27454910     0.60996497     2.50299326     184547975.69334736
7.33466934     0.60724447     2.47448266     183953679.60184380
7.39478958     0.59870257     2.45961698     184347320.07448947
7.45490982     0.57718334     2.44135617     184466311.07422853
7.51503006     0.55765417     2.41370907     183848109.94998515
7.57515030     0.54241578     2.38676852     183250462.88816321
7.63527054     0.52793376     2.35839967     182509451.82365960
7.69539078     0.51809001     2.32940671     181685189.31468865
7.75551102     0.51204676     2.30519841     181201694.83441040
7.81563126     0.50669728     2.28624070     181104624.18374670
7.87575150     0.49526204     2.27632605     181706305.78866625
7.93587174     0.47010251     2.26241885     181974768.51450491
7.99599198     0.44051843     2.23428901     181073636.53179950
8.05611222     0.42123697     2.19153662     178944256.57859212
8.11623246     0.42214313     2.14934546     176808942.96481371
8.17635270     0.43235903     2.12456353     176064932.38267002
8.23647295     0.43695332     2.11135806     176257129.00497851
8.29659319     0.43479363     2.10694016     177172177.01422614
8.35671343     0.41704405     2.10384290     178193698.45628709
8.41683367     0.38954124     2.08811820     178134217.01651728
8.47695391     0.36692469     2.05965025     176960699.33393115
8.53707415     0.35042585     2.02688682     175380812.59956107
8.59719439     0.34405554     1.98846265     173267739.72157598
8.65731463     0.35367137     1.95783998     171792388.91215345
8.71743487     0.36384303     1.94564367     171907783.69202921
8.77755511     0.36181180     1.94315874     172872283.84312055
8.83767535     0.34669232     1.93878802     173664838.69107309
8.89779559     0.32342292     1.92459283     173566063.20001268
8.95791583     0.30349408     1.89817685     172340431.60050413
9.01803607     0.29176936     1.86823324     170760173.70770136
9.07815631     0.28657436     1.83822175     169137178.99377599
9.13827655     0.28777859     1.81135082     167768489.37258002
9.19839679     0.29268132     1.79091291     166966803.16710621
9.25851703     0.29691986     1.77870119     166912149.54819623
9.31863728     0.29368353     1.77241274     167402059.40395817
9.37875752     0.28161202     1.76378803     167662224.17418319
9.43887776     0.26542788     1.74794879     167221683.96444610
9.49899800     0.25230414     1.72334688     165918198.36585468
9.55911824     0.24783553     1.69768519     164482053.82645866
9.61923848     0.24666564     1.67591034     163393583.20288974
9.67935872     0.24692512     1.65645232     162505868.77858719
9.73947896     0.24852274     1.64039115     161929757.60644144
9.79959920     0.24849300     1.62805897     161704449.93665433
9.85971944     0.24571420     1.61856911     161748152.60337162
9.91983968     0.23608909     1.60826141     161698064.17662641
9.97995992     0.22548382     1.59072006     160903718.42447600
10.04008016     0.21969141     1.57037607     159802796.35136321
10.10020040     0.21681886     1.55107819     158784171.04940164
10.16032064     0.21671209     1.53315311     157883399.03274354
10.22044088     0.21626579     1.51883944     157334883.40712467
10.28056112     0.21517587     1.50400723     156714892.25174552
10.34068136     0.21547236     1.49119237     156288258.80650488
10.40080160     0.21485283     1.48113393     156136581.81266305
10.46092184     0.21040080     1.47362198     156242642.03075397
10.52104208     0.20055730     1.46316753     156025770.90988213
10.58116232     0.19043088     1.44601465     155077786.81116864
10.64128256     0.18643744     1.42484712     153675901.67932895
10.70140281     0.18906096     1.40673877     152580028.90506700
10.76152305     0.19269763     1.39578149     152242076.64104798
10.82164329     0.19131658     1.38873944     152320202.83466437
10.88176353     0.18559297     1.37972292     152171979.08448654
10.94188377     0.17928092     1.36888097     151810324.50401884
11.00200401     0.17209393     1.35616463     151226442.69402421
11.06212425     0.16535317     1.34136520     150393509.03744841
11.12224449     0.16062509     1.32491337     149356265.08593038
11.18236473     0.15728683     1.30851748     148305312.21399966
11.24248497     0.15688086     1.29138600     147150558.19793746
11.30260521     0.15857057     1.27801760     146406015.03544474
11.36272545     0.15904128     1.26632403     145838062.80043173
11.42284569     0.15968191     1.25666280     145491155.97714546
11.48296593     0.15668186     1.24924584     145393675.20496327
11.54308617     0.15021597     1.23900446     144956713.41593370
11.60320641     0.14475689     1.22470328     144029821.84325901
11.66332665     0.14279238     1.21048283     143095045.35321853
11.72344689     0.14032747     1.19742667     142281283.33570474
11.78356713     0.13947258     1.18276176     141259472.63398010
11.84368738     0.14181461     1.17062652     140523455.37049621
11.90380761     0.14259481     1.16295328     140310991.62749094
11.96392786     0.13957922     1.15511005     140068563.18432388
12.02404810     0.13604907     1.14582846     139641285.08842146
12.08416834     0.13168463     1.13689190     139244954.03408957
12.14428858     0.12568220     1.12645123     138652594.14722753
12.20440882     0.11941156     1.11420555     137824234.43285120
12.26452906     0.11339626     1.09886905     136596742.38000718
12.32464930     0.11165607     1.08155264     135103237.59859836
12.38476954     0.11321091     1.06633711     133852343.65629056
12.44488978     0.11680537     1.05394061     132938483.41244243
12.50501002     0.11933755     1.04647362     132634301.61348253
12.56513026     0.11723167     1.04009588     132459739.85642810
12.62525050     0.11263687     1.03147534     131990410.73317437
12.68537074     0.10753628     1.02036713     131190729.68918534
12.74549098     0.10365914     1.00743645     130142083.30152191
12.80561122     0.10105600     0.99404353     129017683.51071128
12.86573146     0.09944238     0.97981232     127767649.33562706
12.92585170     0.10051868     0.96563759     126507669.59854494
12.98597194     0.10350176     0.95374794     125531175.71139504
13.04609218     0.10643138     0.94545066     125015204.87826529
13.10621243     0.10583625     0.93917628     124757839.61852317
13.16633267     0.10202315     0.93127329     124275492.94730029
13.22645291     0.09796216     0.91981323     123306669.89060134
13.28657315     0.09658057     0.90726249     122177001.31931983
13.34669339     0.09637248     0.89583152     121183515.99918152
13.40681363     0.09604566     0.88489389     120243135.29168476
13.46693387     0.09631842     0.87374524     119260623.81968577
13.52705411     0.09768515     0.86379246     118428482.04068850
13.58717435     0.09829529     0.85552104     117815753.94186218
13.64729459     0.09738743     0.84792424     117286261.61737944
13.70741483     0.09477493     0.83919728     116590495.11898653
13.76753507     0.09229572     0.82914460     115699102.80959606
13.82765531     0.09032243     0.81781566     114616592.34343882
13.88777555     0.09002433     0.80623270     113484519.80910921
13.94789579     0.09082854     0.79564785     112479431.73964870
14.00801603     0.09116765     0.78632896     111641181.85208067
14.06813627     0.09133942     0.77648304     110716427.89710721
14.12825651     0.09215224     0.76776133     109940658.20284969
14.18837675     0.09163245     0.75961696     109237283.15182287
14.24849699     0.09055655     0.75057792     108394779.56770328
14.30861723     0.09011429     0.74087713     107445289.89520767
14.36873747     0.09069956     0.73178933     106573250.21123095
14.42885771     0.09066274     0.72375649     105844415.71135087
14.48897796     0.09075975     0.71521046     105030427.93085147
14.54909820     0.09131419     0.70861044     104492987.36485264
14.60921844     0.08909959     0.70294586     104086016.54059520
14.66933868     0.08519706     0.69547408     103403444.73589775
14.72945892     0.08128029     0.68606194     102422092.94694766
14.78957916     0.07869208     0.67525214     101219761.87408033
14.84969940     0.07813046     0.66514180     100109530.97248256
14.90981964     0.07705938     0.65714209     99305934.04154675
14.96993988     0.07383236     0.64908232     98483474.26562707
15.03006012     0.06988893     0.63898350     97340570.41109878
15.09018036     0.06712796     0.62781215     96021319.79542634
15.15030060     0.06504720     0.61658304     94679586.29500706
15.21042084     0.06366284     0.60530800     93317086.41716564
15.27054108     0.06257261     0.59482756     92063828.30835509
15.33066132     0.06070694     0.58437686     90802420.18545476
15.39078156     0.05864006     0.57315999     89408759.15820424
15.45090180     0.05713408     0.56110661     87870427.52288619
15.51102204     0.05663455     0.54894824     86300902.74083984
15.57114229     0.05711844     0.53732132     84800434.12178284
15.63126253     0.05742618     0.52707643     83504750.07933186
15.69138277     0.05660014     0.51681564     82194051.75646846
15.75150301     0.05568372     0.50575529     80743200.98060176
15.81162325     0.05509253     0.49455461     79256381.72579797
15.87174349     0.05479591     0.48337181     77758786.83940907
15.93186373     0.05434939     0.47260586     76314876.92837726
15.99198397     0.05331714     0.46163309     74824323.70844080
16.05210421     0.05205993     0.45003009     73217863.70695329
16.11222445     0.05096806     0.43771530     71481022.32493839
16.17234469     0.05044550     0.42481322     69632908.19968277
16.23246493     0.05086680     0.41185290     67759489.82633314
16.29258517     0.05183623     0.39979583     66019432.15860897
16.35270541     0.05187876     0.38844644     64381973.18720198
16.41282565     0.05096496     0.37643141     62619952.85910828
16.47294589     0.04983234     0.36330292     60657385.43375760
16.53306613     0.04917288     0.34901095     58483853.42432892
16.59318637     0.04966424     0.33444860     56247432.06868779
16.65330661     0.05022181     0.32022344     54050176.80119999
16.71342685     0.05059740     0.30537519     51730035.98988967
16.77354709     0.05145966     0.28988875     49283301.77054350
16.83366734     0.05262486     0.27413146     46771483.09336779
16.89378758     0.05381816     0.25755220     44099718.12028283
16.95390782     0.05591154     0.24014290     41265117.62589800
17.01402806     0.05830419     0.22247914     38365421.01288137
17.07414830     0.06056069     0.20334849     35190344.71003018
17.13426854     0.06434890     0.18179401     31571023.32656316
17.19438878     0.07088924     0.15890958     27693659.60108132
17.25450902     0.08049020     0.13537567     23674823.79018730
17.31462926     0.09373688     0.11170449     19603216.74466737
17.37474950     0.11168215     0.08946632     15755116.82574072
17.43486974     0.13347017     0.07174577     12678227.38070199
17.49498998     0.15557386     0.05916380     10490912.35381696
17.55511022     0.17652636     0.05016398     8925634.26106903
17.61523046     0.19572500     0.04348154     7763129.08252443
17.67535070     0.21348023     0.03816501     6837178.87992561
17.73547094     0.23000824     0.03378118     6072410.02938347
17.79559118     0.24561212     0.03015285     5438564.52915120
17.85571142     0.26033639     0.02719754     4922099.00258103
17.91583166     0.27422181     0.02481174     4505445.08109794
17.97595190     0.28730390     0.02279040     4152286.52426390
18.03607214     0.29975748     0.02108184     3853843.38397422
18.09619238     0.31160506     0.01968022     3609612.68568295
18.15631263     0.32286358     0.01852971     3409886.39730715
18.21643287     0.33356473     0.01755923     3241995.06422800
18.27655311     0.34376609     0.01671696     3096671.91154808
18.33667335     0.35352077     0.01597241     2968483.36473013
18.39679359     0.36287028     0.01530952     2854613.05948231
18.45691383     0.37184820     0.01470927     2751653.13013840
18.51703407     0.38049119     0.01416000     2657530.05223282
18.57715431     0.38882595     0.01365682     2571415.26503972
18.63727455     0.39687474     0.01319314     2492150.02032906
18.69739479     0.40465808     0.01276338     2418746.38486030
18.75751503     0.41219431     0.01236320     2350442.68249900
